# RPA macroscopic dielectric function without local fields
# Tolerance = -0.0010 0.0000
# npweps  = 51
# npwwfn  = 137
# nbands  = 8
# loband  = 2
# nkibz   = 8
# nkbz    = 8
# Lorentzian broadening =  0.1000 [eV]
# List of q-points for the optical limit:
# q =  0.938821, 0.000000, 0.000000, [Reduced coords] 
# q =  0.000000, 0.938821, 0.000000, [Reduced coords] 
# q =  0.000000, 0.000000, 0.938821, [Reduced coords] 
# q =  0.000000, 0.813043, 0.813043, [Reduced coords] 
# q =  0.813043, 0.000000, 0.813043, [Reduced coords] 
# q =  0.813043, 0.813043, 0.000000, [Reduced coords] 
# omega [eV]    RE(eps(q=1)) IM(eps(q=1) RE(eps(q=2) ) ... DOS   IDOS
  0.000   47.5700    0.0000   46.5198    0.0000   44.7073    0.0000   39.4718   -0.0000   40.8671    0.0000   41.5871   -0.0000    0.0000    0.0000
  0.100   47.6200    0.1006   46.5686    0.0981   44.7536    0.0932   39.5111    0.0789   40.9082    0.0827   41.6291    0.0844    0.0000    0.0000
  0.200   47.7708    0.2027   46.7156    0.1976   44.8933    0.1878   39.6294    0.1590   41.0322    0.1666   41.7556    0.1701    0.0000    0.0000
  0.300   48.0244    0.3077   46.9629    0.3000   45.1283    0.2850   39.8283    0.2413   41.2407    0.2529   41.9684    0.2581    0.0000    0.0000
  0.400   48.3847    0.4173   47.3142    0.4069   45.4619    0.3865   40.1107    0.3270   41.5367    0.3428   42.2705    0.3499    0.0000    0.0000
  0.500   48.8569    0.5332   47.7746    0.5199   45.8992    0.4937   40.4806    0.4175   41.9245    0.4377   42.6663    0.4468    0.0000    0.0000
  0.600   49.4482    0.6574   48.3511    0.6410   46.4468    0.6087   40.9435    0.5143   42.4099    0.5394   43.1618    0.5506    0.0000    0.0000
  0.700   50.1681    0.7925   49.0531    0.7728   47.1133    0.7336   41.5064    0.6193   43.0004    0.6497   43.7646    0.6633    0.0000    0.0000
  0.800   51.0286    0.9414   49.8921    0.9179   47.9098    0.8712   42.1786    0.7347   43.7056    0.7711   44.4846    0.7872    0.0000    0.0000
  0.900   52.0449    1.1076   50.8832    1.0801   48.8503    1.0248   42.9713    0.8631   44.5378    0.9062   45.3342    0.9254    0.0000    0.0000
  1.000   53.2363    1.2957   52.0450    1.2637   49.9525    1.1986   43.8992    1.0080   45.5122    1.0590   46.3292    1.0815    0.0000    0.0000
  1.100   54.6269    1.5118   53.4013    1.4746   51.2388    1.3980   44.9803    1.1738   46.6481    1.2339   47.4894    1.2603    0.0000    0.0000
  1.200   56.2477    1.7636   54.9822    1.7204   52.7374    1.6303   46.2377    1.3663   47.9702    1.4372   48.8399    1.4683    0.0000    0.0000
  1.300   58.1382    2.0616   56.8265    2.0114   54.4849    1.9052   47.7011    1.5932   49.5100    1.6772   50.4131    1.7140    0.0000    0.0000
  1.400   60.3499    2.4204   58.9846    2.3620   56.5285    2.2359   49.4086    1.8651   51.3081    1.9655   52.2509    2.0093    0.0000    0.0000
  1.500   62.9508    2.8605   61.5230    2.7925   58.9308    2.6416   51.4105    2.1972   53.4186    2.3181   54.4087    2.3709    0.0000    0.0000
  1.600   66.0321    3.4123   64.5314    3.3325   61.7758    3.1499   53.7744    2.6114   55.9136    2.7589   56.9610    2.8235    0.0000    0.0000
  1.700   69.7200    4.1214   68.1335    4.0271   65.1795    3.8029   56.5929    3.1408   58.8928    3.3239   60.0105    3.4045    0.0000    0.0000
  1.800   74.1930    5.0600   72.5050    4.9479   69.3064    4.6674   59.9965    3.8374   62.4969    4.0696   63.7031    4.1733    0.0000    0.0000
  1.900   79.7131    6.3486   77.9040    6.2142   74.3975    5.8539   64.1760    4.7873   66.9323    5.0906   68.2529    5.2289    0.0000    0.0000
  2.000   86.6808    8.2006   84.7258    8.0379   80.8215    7.5589   69.4211    6.1422   72.5139    6.5538   73.9881    6.7485    0.0000    0.0000
  2.100   95.7385   11.0261   93.6061   10.8281   89.1701   10.1593   76.1936    8.1909   79.7459    8.7797   81.4373    9.0750    0.0000    0.0000
  2.200  107.9754   15.7015  105.6249   15.4620  100.4465   14.4574   85.2713   11.5447   89.4824   12.4511   91.5002   12.9489    0.0000    0.0000
  2.300  125.3240   24.3813  122.7006   24.1079  116.4357   22.4137   98.0253   17.6895  103.2400   19.2393  105.7785   20.2164    0.0174    0.0001
  2.400  150.9890   43.4597  147.9773   43.2377  140.1679   39.7868  116.7209   30.9783  123.5682   34.0696  126.8911   36.4500    1.7123    0.0064
  2.500  183.7578   95.5995  179.5656   95.4807  171.7552   87.1132  140.6357   66.3329  150.1926   74.4104  152.9761   81.6996   29.9548    0.1164
  2.600  148.4905  211.6916  146.5358  211.4467  142.7166  203.5610  128.4729  144.3407  125.8569  171.5533  111.2848  179.9765  115.1500    0.5396
  2.700   -4.6512  210.0353  -18.1572  203.2168  -14.3197  194.6694   16.0888  174.7070   -7.2408  161.3916  -10.1163  145.1574  104.7812    0.9247
  2.800  -19.7561  103.6576  -23.2979   95.4457  -25.4511   92.2415  -16.5485   87.1439   -8.6268   76.9494   -0.1899   70.7445   20.0055    0.9982
  2.900   29.4380   79.2619   24.0262   70.4756   18.0968   63.3989   19.4458   58.8246   30.2597   59.3832   38.8538   57.8559    8.6815    1.0301
  3.000   61.8057  123.3391   59.8940  104.0129   56.3504   85.7809   47.1720   81.6072   56.5741   90.1798   68.2379   90.1141   63.9309    1.2650
  3.100  -14.9267  165.2569    6.9608  153.5912   22.6906  143.7838    7.7732  108.0443   11.3234  124.1367   25.2289  143.1645  101.7334    1.6389
  3.200  -35.2567   93.8236  -22.6634   99.3332  -15.3496   95.9898    3.9709   71.6819   -5.0858   81.6851  -11.5980   98.3199   41.6718    1.7920
  3.300    3.4938   83.4381    8.3172   93.7321   19.3919   92.3783   28.1233   81.9066   22.1584   86.7160    5.1367   93.0118   51.4465    1.9811
  3.400   13.0208  135.5243    1.3325  146.1459    3.4190  150.7071   14.5597  127.4891    2.1650  130.3660   -3.3605  121.9796   87.9103    2.3042
  3.500  -73.1695  129.2523  -79.2222  116.9986  -79.5771  116.2760  -58.2809  107.6344  -59.5775   98.9412  -57.8699   95.5257   54.2088    2.5034
  3.600  -66.4309   76.9674  -62.9892   67.3248  -62.4729   62.7231  -48.2648   60.6180  -44.6416   60.8976  -41.3522   59.4200   54.1456    2.7024
  3.700  -62.1863   64.1858  -53.6211   63.8316  -45.9586   62.1476  -39.9770   51.5937  -37.1338   55.9115  -30.7657   60.8938  109.0081    3.1030
  3.800  -51.6038   47.7560  -53.9491   47.0063  -54.3434   48.8326  -30.7586   38.2597  -32.4458   43.9330  -33.3229   50.9040   86.3915    3.4204
  3.900  -38.3268   48.9258  -36.9202   37.1147  -39.3391   31.6208  -13.7942   35.1534  -17.1913   44.3876  -18.0326   50.9756   38.0636    3.5603
  4.000  -52.5130   50.5032  -29.7185   50.8827  -20.2819   35.3079   -3.3745   54.4765  -21.1581   54.4608  -30.0922   66.7933   46.7709    3.7322
  4.100  -47.6512   29.5241  -45.6685   41.4609  -26.2049   53.7039  -28.1526   66.4215  -30.8171   57.8485  -46.3527   48.8981   52.1094    3.9237
  4.200  -33.4928   21.7598  -35.0896   26.0221  -35.8427   35.6633  -39.5477   40.0978  -39.0997   36.9774  -39.0685   29.8789   19.4668    3.9952
  4.300  -17.0501   23.5975  -17.5209   25.5307  -18.5865   29.2764  -22.0849   28.7503  -22.2036   27.4208  -21.7944   24.9310    4.0968    4.0103
  4.400   -3.0703   41.8289   -1.8158   43.8912   -1.9627   47.0693   -5.0669   40.3714   -5.5615   39.1459   -6.6855   37.4182   49.8635    4.1935
  4.500  -27.2152   69.4215  -29.1721   77.9435  -30.1227   82.4010  -22.4247   67.8825  -22.6847   65.6907  -21.7596   58.9009  132.0240    4.6787
  4.600  -46.2224   44.9951  -56.3468   45.5473  -63.2804   47.8655  -44.0181   43.8227  -39.6980   43.5286  -31.8530   43.4808   58.8872    4.8951
  4.700  -37.8463   43.0008  -44.5300   32.9629  -51.1692   28.0476  -30.8626   36.7910  -28.9935   44.0948  -26.7316   52.5880   69.5341    5.1507
  4.800  -52.9517   41.7955  -46.2611   33.3272  -45.6510   24.1783  -40.3317   47.0298  -49.1168   49.1455  -53.6919   53.3083  102.8497    5.5286
  4.900  -51.2458   24.8073  -44.2217   23.9455  -38.7284   18.6045  -46.4025   30.4309  -51.1581   27.2820  -56.8438   27.0030   36.9439    5.6644
  5.000  -47.6501   23.0498  -43.1153   25.6779  -32.7609   25.1694  -44.1732   28.9615  -44.7965   23.2781  -47.0730   19.5483   46.7656    5.8363
  5.100  -49.3455   14.7519  -48.1549   18.7781  -46.0593   25.5622  -49.5660   19.0781  -47.1603   18.5643  -46.9483   16.2298   38.3855    5.9773
  5.200  -43.6732    7.8660  -44.4015    9.5360  -45.3579   11.9739  -43.7982    9.5296  -43.5355    9.6301  -42.9394    8.7075    6.0448    5.9995
  5.300  -38.3544    5.1050  -38.7910    5.7118  -39.3264    6.5746  -37.8109    5.8397  -37.8517    5.7882  -37.5245    5.4176    0.1540    6.0001
  5.400  -34.2959    3.7513  -34.4696    4.0190  -34.6424    4.3916  -33.3383    4.1258  -33.4679    4.0702  -33.3275    3.8919    0.0006    6.0001
  5.500  -31.1038    2.9526  -31.1269    3.0881  -31.0952    3.2730  -29.9073    3.1577  -30.0869    3.1179  -30.0557    3.0211    0.0000    6.0001
  5.600  -28.4993    2.4236  -28.4362    2.4985  -28.2892    2.5986  -27.1655    2.5381  -27.3766    2.5121  -27.4107    2.4553    0.0000    6.0001
  5.700  -26.3138    2.0462  -26.1998    2.0898  -25.9860    2.1467  -24.9033    2.1079  -25.1341    2.0916  -25.2088    2.0566    0.0000    6.0001
  5.800  -24.4412    1.7627  -24.2965    1.7888  -24.0433    1.8218  -22.9916    1.7919  -23.2343    1.7822  -23.3348    1.7601    0.0000    6.0001
  5.900  -22.8106    1.5418  -22.6473    1.5574  -22.3712    1.5763  -21.3461    1.5501  -21.5956    1.5449  -21.7127    1.5307    0.0000    6.0001
