# Macroscopic dielectric function obtained with the BS equation.
#  RPA L0 with KS energies and KS wavefunctions     LOCAL FIELD EFFECTS INCLUDED
# RESONANT-ONLY calculation
# Coulomb term constructed with full W(G1,G2)
# Scissor operator energy =  0.8000 [eV]
# Tolerance = -0.0010 0.0000
# npweps  = 51
# npwwfn  = 137
# nbands  = 8
# loband  = 2
# nkibz   = 8
# nkbz    = 8
# Lorentzian broadening =  0.1000 [eV]
# List of q-points for the optical limit:
# q =  0.938821, 0.000000, 0.000000, [Reduced coords] 
# q =  0.000000, 0.938821, 0.000000, [Reduced coords] 
# q =  0.000000, 0.000000, 0.938821, [Reduced coords] 
# q =  0.000000, 0.813043, 0.813043, [Reduced coords] 
# q =  0.813043, 0.000000, 0.813043, [Reduced coords] 
# q =  0.813043, 0.813043, 0.000000, [Reduced coords] 
# omega [eV]    RE(eps(q=1)) IM(eps(q=1) RE(eps(q=2) ) ... 
  0.000   19.5562    0.0000   19.2592    0.0000   18.7056    0.0000   16.9630    0.0000   17.4212    0.0000   17.6754    0.0000
  0.100   19.5693    0.0264   19.2720    0.0259   18.7180    0.0248   16.9736    0.0214   17.4323    0.0223   17.6867    0.0227
  0.200   19.6088    0.0530   19.3108    0.0520   18.7551    0.0498   17.0057    0.0430   17.4657    0.0448   17.7208    0.0457
  0.300   19.6751    0.0801   19.3758    0.0786   18.8174    0.0753   17.0595    0.0650   17.5217    0.0677   17.7779    0.0690
  0.400   19.7687    0.1079   19.4677    0.1059   18.9054    0.1014   17.1355    0.0875   17.6009    0.0912   17.8586    0.0930
  0.500   19.8906    0.1368   19.5873    0.1343   19.0199    0.1286   17.2343    0.1109   17.7038    0.1156   17.9636    0.1179
  0.600   20.0419    0.1671   19.7358    0.1639   19.1621    0.1570   17.3569    0.1353   17.8316    0.1410   18.0939    0.1438
  0.700   20.2242    0.1990   19.9146    0.1952   19.3333    0.1869   17.5045    0.1610   17.9855    0.1679   18.2508    0.1712
  0.800   20.4392    0.2330   20.1256    0.2286   19.5353    0.2188   17.6785    0.1884   18.1668    0.1964   18.4357    0.2003
  0.900   20.6893    0.2695   20.3710    0.2644   19.7701    0.2530   17.8806    0.2176   18.3775    0.2270   18.6507    0.2315
  1.000   20.9771    0.3091   20.6534    0.3033   20.0403    0.2901   18.1130    0.2493   18.6199    0.2600   18.8978    0.2652
  1.100   21.3061    0.3523   20.9763    0.3457   20.3491    0.3306   18.3782    0.2837   18.8966    0.2961   19.1800    0.3020
  1.200   21.6802    0.4000   21.3434    0.3925   20.7001    0.3751   18.6793    0.3216   19.2108    0.3357   19.5005    0.3424
  1.300   22.1043    0.4530   21.7595    0.4445   21.0977    0.4247   19.0199    0.3635   19.5665    0.3797   19.8633    0.3872
  1.400   22.5840    0.5125   22.2303    0.5030   21.5474    0.4803   19.4047    0.4104   19.9684    0.4288   20.2732    0.4374
  1.500   23.1266    0.5799   22.7627    0.5692   22.0558    0.5432   19.8388    0.4634   20.4221    0.4844   20.7359    0.4941
  1.600   23.7406    0.6571   23.3654    0.6449   22.6308    0.6151   20.3289    0.5237   20.9345    0.5478   21.2587    0.5587
  1.700   24.4367    0.7463   24.0486    0.7326   23.2822    0.6982   20.8830    0.5931   21.5143    0.6208   21.8500    0.6332
  1.800   25.2280    0.8506   24.8254    0.8351   24.0225    0.7953   21.5112    0.6739   22.1720    0.7059   22.5209    0.7200
  1.900   26.1314    0.9742   25.7123    0.9566   24.8668    0.9102   22.2260    0.7692   22.9208    0.8063   23.2846    0.8223
  2.000   27.1680    1.1226   26.7303    1.1026   25.8350    1.0480   23.0432    0.8829   23.7778    0.9264   24.1586    0.9447
  2.100   28.3653    1.3035   27.9064    1.2807   26.9525    1.2159   23.9835    1.0209   24.7647    1.0722   25.1650    1.0932
  2.200   29.7599    1.5282   29.2766    1.5021   28.2529    1.4242   25.0738    1.1912   25.9103    1.2526   26.3330    1.2768
  2.300   31.4007    1.8131   30.8896    1.7830   29.7816    1.6880   26.3505    1.4059   27.2533    1.4802   27.7019    1.5082
  2.400   33.3559    2.1833   32.8127    2.1487   31.6011    2.0304   27.8635    1.6831   28.8471    1.7747   29.3257    1.8073
  2.500   35.7223    2.6792   35.1422    2.6394   33.8010    2.4885   29.6839    2.0520   30.7676    2.1673   31.2812    2.2054
  2.600   38.6436    3.3688   38.0210    3.3234   36.5133    3.1249   31.9163    2.5614   33.1268    2.7108   33.6813    2.7551
  2.700   42.3413    4.3749   41.6700    4.3244   39.9420    4.0518   34.7212    3.2994   36.0971    3.5000   36.6995    3.5508
  2.800   47.1756    5.9388   46.4500    5.8870   44.4178    5.4900   38.3587    4.4385   39.9581    4.7216   40.6157    4.7767
  2.900   53.7645    8.5915   52.9818    8.5525   50.5086    7.9221   43.2730    6.3574   45.1885    6.7859   45.9080    6.8342
  3.000   63.2092   13.6910   62.3738   13.7167   59.2292   12.5733   50.2523   10.0245   52.6395   10.7441   53.4273   10.7379
  3.100   77.1878   25.4772   76.2901   25.7768   72.1917   23.2240   60.4872   18.4644   63.6025   19.8841   64.5245   19.6082
  3.200   92.0160   59.1291   90.4777   60.5413   87.1547   53.7068   71.2102   42.4604   75.1521   46.0020   77.4070   44.8431
  3.300   51.3017  113.6273   44.7187  113.8863   48.4087  111.5991   42.8306   79.5108   42.8916   87.9556   46.2781   92.9187
  3.400   -3.9588   86.4359   -6.6033   80.7918   -5.5758   75.7957    7.4533   64.7419    1.7629   63.6716    2.3414   62.6763
  3.500   -0.4747   57.0999   -1.7577   53.0297   -1.1769   51.6903    3.4794   43.8098    7.0704   42.8975   11.3252   44.5048
  3.600    5.2328   51.5335    4.5736   46.4656    3.9626   44.4380    9.4773   34.2962   13.4283   39.1330   16.6778   45.9287
  3.700   14.6486   61.5732   17.3725   52.1637   15.7187   45.7085   23.2916   37.3086   23.7400   48.6785   21.4992   58.8256
  3.800  -14.7875   70.3443   -3.3658   71.5029    6.5294   63.9967   16.1997   59.6737    1.4188   64.3457   -8.9086   65.5092
  3.900  -21.1382   44.2628  -18.3429   48.7865  -12.7446   51.0607   -4.9418   50.9013  -10.5063   44.0566  -15.3497   41.0332
  4.000   -9.2044   36.4772   -8.5941   40.6279   -3.5155   43.4419   -1.9722   43.0756   -1.8141   38.4907   -3.5627   34.5166
  4.100   -1.8396   41.3142   -4.7789   44.3618   -7.2056   49.3115   -2.9837   42.3249   -1.4809   42.1331   -0.3692   39.9218
  4.200   -7.5263   53.9408  -11.3411   52.1612  -12.5259   50.3335   -6.4397   46.9175   -5.5225   46.1776   -4.6451   45.4431
  4.300  -23.2053   53.8648  -24.1118   51.4908  -22.6530   51.6201  -16.2745   45.6622  -15.6772   46.9636  -13.8700   46.2778
  4.400  -33.9559   38.8436  -34.7506   36.8249  -35.5835   37.4029  -23.7802   33.4053  -23.2903   34.5876  -21.8616   36.1488
  4.500  -27.3887   27.0542  -28.7941   23.5699  -30.5745   22.3112  -16.8522   23.6835  -15.8621   26.5684  -15.4216   28.7901
  4.600  -23.2528   30.5614  -19.8934   22.6880  -20.9805   17.9898   -7.9815   26.7788  -12.1925   33.2540  -12.9066   36.2708
  4.700  -32.3685   27.0552  -22.9159   29.2943  -15.5050   22.8637  -13.6559   38.3065  -20.9217   34.2031  -26.2977   37.9364
  4.800  -30.6443   16.4901  -29.2760   20.7834  -23.7383   25.9781  -27.8668   32.3099  -28.4452   28.7129  -32.3036   24.3531
  4.900  -26.5601   12.3008  -25.9304   14.1120  -25.2235   16.9365  -28.8899   20.0293  -28.9040   18.1979  -28.3960   15.5980
  5.000  -22.1692    9.1773  -22.7116   11.2065  -21.8523   13.3129  -24.7745   13.6398  -24.1416   12.5094  -24.1539   11.1558
  5.100  -18.5954    9.3772  -19.3108    9.7009  -19.7661   11.5034  -21.0383   11.0825  -20.4883   10.3553  -19.7959    9.1246
  5.200  -16.3347   10.0740  -16.7360   10.6437  -17.2116   11.1364  -18.0028    9.8895  -17.3811   10.2096  -16.1916    9.5637
  5.300  -17.4172   11.1434  -18.1852   10.7912  -18.3943   11.5076  -17.3933    9.9015  -17.4708   10.1137  -16.3028   10.2873
  5.400  -17.4160    8.9667  -17.0276    8.1884  -17.6856    8.4779  -15.8588    7.5934  -15.7269    8.0476  -14.9533    9.3992
  5.500  -16.9008    8.6212  -16.2914    8.1398  -16.4476    7.5978  -13.3945    8.2785  -14.6050    9.0864  -15.6187   10.3117
  5.600  -16.9578    6.2003  -16.1199    6.4328  -15.4865    6.1144  -14.7018    8.3961  -15.5512    7.6345  -16.7057    7.6950
  5.700  -14.9302    4.7445  -14.3542    5.0818  -13.7748    5.2687  -13.7076    6.4813  -14.2219    6.0211  -14.8132    5.5663
  5.800  -13.4906    4.4940  -13.0793    5.0361  -12.3458    5.5083  -12.7396    6.3661  -12.9145    5.5042  -13.4338    5.1825
  5.900  -12.3420    4.5005  -12.2907    4.9478  -12.1947    5.5234  -12.3849    6.0317  -12.0607    5.4463  -12.3365    4.5355
